test_index,h5_row_index,r2,pearson,mae,rmse,normalized_mae,target_range,source_range,finite_core_metrics
0,0,-0.22160911560058594,0.6956499,0.23594955,0.30984405,0.23594955,1.0,1.0,True
1,1,-0.389184832572937,-0.25485677,0.23469941,0.3464046,0.23469941,1.0,1.0,True
2,2,-2.4255361557006836,-0.2938686,0.18536282,0.22374842,0.18536282,1.0,1.0,True
3,3,-3.698740005493164,-0.24643278,0.280945,0.31837246,0.280945,1.0,1.0,True
4,4,-1.8478472232818604,-0.7582343,0.459332,0.5308804,0.459332,1.0,1.0,True
5,5,0.46451640129089355,0.76925945,0.14531356,0.17331815,0.14531356,1.0,1.0,True
6,6,-0.0300753116607666,0.8163361,0.12670714,0.14247467,0.12670714,1.0,1.0,True
7,7,-3.497591495513916,-0.39828858,0.5018892,0.57439,0.5018892,1.0,1.0,True
8,8,-0.6940857172012329,0.21500635,0.07420677,0.09758804,0.07420677,1.0,1.0,True
9,9,-1.7848823070526123,-0.6250377,0.24870375,0.2918991,0.24870375,1.0,1.0,True
10,10,0.6311852931976318,0.8187049,0.056347676,0.07379376,0.056347676,1.0,1.0,True
11,11,-0.15264511108398438,0.22013505,0.08348141,0.16607034,0.08348141,1.0,1.0,True
12,12,-3.125321388244629,-0.74339473,0.59363747,0.6853681,0.59363747,1.0,1.0,True
13,13,-2.02445912361145,-0.6658523,0.5117017,0.5917398,0.5117017,1.0,1.0,True
14,14,-0.6174958944320679,0.6270251,0.14810038,0.16553858,0.14810038,1.0,1.0,True
15,15,0.0944509506225586,0.5726008,0.14691286,0.16423821,0.14691286,1.0,1.0,True
16,16,-1.2125000953674316,-0.017080367,0.17816006,0.21506405,0.17816006,1.0,1.0,True
17,17,0.15147185325622559,0.596808,0.04226934,0.0692292,0.04226934,1.0,1.0,True
18,18,-1.1008644104003906,-0.21032362,0.1995763,0.25444928,0.1995763,1.0,1.0,True
19,19,0.1577107310295105,0.5937783,0.07073553,0.104277655,0.07073553,1.0,1.0,True
20,20,-2.189687728881836,-0.48397154,0.5408354,0.6569026,0.5408354,1.0,1.0,True
21,21,-0.7628134489059448,0.31655842,0.20741089,0.2251583,0.20741089,1.0,1.0,True
22,22,0.3012864589691162,0.6189613,0.17373353,0.21745312,0.17373353,1.0,1.0,True
23,23,0.07552909851074219,0.3309737,0.078633405,0.11655361,0.078633405,1.0,1.0,True
24,24,0.5057597160339355,0.8063248,0.11023728,0.1529952,0.11023728,1.0,1.0,True
25,25,0.8876222372055054,0.9534403,0.033216253,0.0556325,0.033216253,1.0,1.0,True
26,26,0.380035400390625,0.6612836,0.02641972,0.064640775,0.02641972,1.0,1.0,True
27,27,-0.5720363855361938,-0.2534037,0.20251878,0.26057363,0.20251878,1.0,1.0,True
28,28,-0.6750833988189697,-0.69255805,0.31692308,0.3796147,0.31692308,1.0,1.0,True
29,29,-1.4574387073516846,0.08330642,0.12322,0.15263917,0.12322,1.0,1.0,True
30,30,-2.1414105892181396,0.42979926,0.109347485,0.12820166,0.109347485,1.0,1.0,True
31,31,-0.672199010848999,0.02304181,0.10976931,0.1415156,0.10976931,1.0,1.0,True
32,32,-0.20915019512176514,-0.18491523,0.3200113,0.35558978,0.3200113,1.0,1.0,True
33,33,-1.9997782707214355,0.49173412,0.21910906,0.241651,0.21910906,1.0,1.0,True
34,34,-1.15333890914917,0.6688878,0.121644154,0.13654876,0.121644154,1.0,1.0,True
35,35,0.5772904753684998,0.8524883,0.12057594,0.16227679,0.12057594,1.0,1.0,True
36,36,-0.3078322410583496,-0.21511665,0.24015719,0.29012275,0.24015719,1.0,1.0,True
37,37,-2.275535821914673,0.6151051,0.13522299,0.14780527,0.13522299,1.0,1.0,True
38,38,-2.6224937438964844,0.7344147,0.20240517,0.21274512,0.20240517,1.0,1.0,True
39,39,-2.962526798248291,-0.66748726,0.5532933,0.6358378,0.5532933,1.0,1.0,True
40,40,-1.249889850616455,-0.16574806,0.116458945,0.14218712,0.116458945,1.0,1.0,True
41,41,-0.2959390878677368,0.3825859,0.051010594,0.07122242,0.051010594,1.0,1.0,True
42,42,-1.98710036277771,0.5571572,0.17544049,0.19024225,0.17544049,1.0,1.0,True
43,43,-2.9618232250213623,0.4062448,0.14209996,0.16934323,0.14209996,1.0,1.0,True
44,44,-0.4349818229675293,0.3862064,0.05953104,0.114357576,0.05953104,1.0,1.0,True
45,45,-0.8191901445388794,-0.09129459,0.2148819,0.2523818,0.2148819,1.0,1.0,True
46,46,-8.963160514831543,0.16089886,0.20138325,0.2121952,0.20138325,1.0,1.0,True
47,47,-1.940260887145996,-0.42647994,0.44280633,0.49287298,0.44280633,1.0,1.0,True
48,48,-0.17134582996368408,0.30219585,0.15358768,0.19741893,0.15358768,1.0,1.0,True
49,49,-0.6429125070571899,-0.15316282,0.10153673,0.17541784,0.10153673,1.0,1.0,True
50,50,0.039745032787323,0.36479694,0.2524942,0.2864558,0.2524942,1.0,1.0,True
51,51,0.39729106426239014,0.7005543,0.15093315,0.19052853,0.15093315,1.0,1.0,True
52,52,-1.6971638202667236,-0.00053015293,0.40018478,0.501694,0.40018478,1.0,1.0,True
53,53,-1.684603214263916,-0.22782576,0.2626639,0.29913872,0.2626639,1.0,1.0,True
54,54,0.2825097441673279,0.65000945,0.09194843,0.13048139,0.09194843,1.0,1.0,True
55,55,-0.14823901653289795,0.7829048,0.28492752,0.361574,0.28492752,1.0,1.0,True
56,56,-1.2394177913665771,-0.42431018,0.38336787,0.520021,0.38336787,1.0,1.0,True
57,57,-0.8065240383148193,0.46584874,0.11345209,0.14198735,0.11345209,1.0,1.0,True
58,58,-2.9904816150665283,-0.6458892,0.5333289,0.612048,0.5333289,1.0,1.0,True
59,59,-0.12248027324676514,0.6212,0.24080685,0.2953552,0.24080685,1.0,1.0,True
60,60,-1.8082997798919678,-0.36476913,0.26060134,0.31023875,0.26060134,1.0,1.0,True
61,61,-0.07243335247039795,0.1672074,0.12167496,0.157593,0.12167496,1.0,1.0,True
62,62,-0.32151877880096436,0.18614604,0.2341799,0.2693791,0.2341799,1.0,1.0,True
63,63,-2.9952292442321777,-0.6536833,0.4909623,0.5441665,0.4909623,1.0,1.0,True
64,64,-0.017284870147705078,0.67018235,0.04538278,0.07725516,0.04538278,1.0,1.0,True
65,65,-0.5942739248275757,0.460204,0.07103422,0.100525394,0.07103422,1.0,1.0,True
66,66,-0.8446605205535889,0.14304753,0.15638262,0.18282425,0.15638262,1.0,1.0,True
67,67,-0.9939171075820923,-0.16750744,0.13840134,0.17498654,0.13840134,1.0,1.0,True
68,68,0.17420119047164917,0.87224156,0.15797742,0.20321614,0.15797742,1.0,1.0,True
69,69,-2.8290247917175293,0.32428187,0.20262939,0.21220906,0.20262939,1.0,1.0,True
70,70,-1.4806773662567139,-0.41164613,0.32029194,0.36880308,0.32029194,1.0,1.0,True
71,71,-4.104393005371094,-0.78017336,0.3101042,0.3388067,0.3101042,1.0,1.0,True
72,72,0.11391890048980713,0.3937355,0.15285873,0.2433096,0.15285873,1.0,1.0,True
73,73,0.007844805717468262,0.7507204,0.14289175,0.16579697,0.14289175,1.0,1.0,True
74,74,-0.06876397132873535,0.04182955,0.15837263,0.24270493,0.15837263,1.0,1.0,True
75,75,-0.017297863960266113,0.43376285,0.16793756,0.21921451,0.16793756,1.0,1.0,True
76,76,-0.11176204681396484,0.12583207,0.19252779,0.23022516,0.19252779,1.0,1.0,True
77,77,-0.3953639268875122,0.5138629,0.045425672,0.073950455,0.045425672,1.0,1.0,True
78,78,-0.7713260650634766,0.6730031,0.36644194,0.46236098,0.36644194,1.0,1.0,True
79,79,-1.0772216320037842,0.082153596,0.16332543,0.21314389,0.16332543,1.0,1.0,True
80,80,-6.564579010009766,0.056742623,0.1790433,0.20295127,0.1790433,1.0,1.0,True
81,81,-0.17438006401062012,0.7210717,0.25216925,0.33925608,0.25216925,1.0,1.0,True
82,82,-0.2401646375656128,0.29322004,0.058633275,0.08196732,0.058633275,1.0,1.0,True
83,83,-0.254666805267334,0.49223647,0.28844273,0.3632449,0.28844273,1.0,1.0,True
84,84,0.19640308618545532,0.6985573,0.16948374,0.2333376,0.16948374,1.0,1.0,True
85,85,-1.3724050521850586,0.5343051,0.23323886,0.25561383,0.23323886,1.0,1.0,True
86,86,-0.16917359828948975,0.36796954,0.2414813,0.26226848,0.2414813,1.0,1.0,True
87,87,-0.673073410987854,-0.3838103,0.24203856,0.29186016,0.24203856,1.0,1.0,True
88,88,0.23757070302963257,0.7799455,0.11782469,0.18758297,0.11782469,1.0,1.0,True
89,89,0.29699695110321045,0.74591935,0.14028153,0.17452629,0.14028153,1.0,1.0,True
90,90,0.2725749611854553,0.6954067,0.089639574,0.11647581,0.089639574,1.0,1.0,True
91,91,0.2582858204841614,0.54850686,0.086625785,0.13875178,0.086625785,1.0,1.0,True
92,92,0.017607152462005615,0.5277521,0.1183344,0.16976567,0.1183344,1.0,1.0,True
93,93,-1.9640357494354248,-0.43395332,0.51064444,0.635192,0.51064444,1.0,1.0,True
94,94,-0.30968523025512695,0.0641851,0.15198803,0.17520364,0.15198803,1.0,1.0,True
95,95,-4.763917446136475,0.31252375,0.12839994,0.15640318,0.12839994,1.0,1.0,True
96,96,-1.7788324356079102,-0.8077611,0.46154055,0.54515207,0.46154055,1.0,1.0,True
97,97,0.8444475531578064,0.94188637,0.038464043,0.06747018,0.038464043,1.0,1.0,True
98,98,-2.595928192138672,-0.6905185,0.44785854,0.5168693,0.44785854,1.0,1.0,True
99,99,-0.2693418264389038,0.5531419,0.06878461,0.09273517,0.06878461,1.0,1.0,True
100,100,-4.244325160980225,-0.46595496,0.3593945,0.39988163,0.3593945,1.0,1.0,True
101,101,-1.3031730651855469,0.07113316,0.24649675,0.2788979,0.24649675,1.0,1.0,True
102,102,0.20359086990356445,0.58929485,0.12762608,0.17015591,0.12762608,1.0,1.0,True
103,103,-0.7467129230499268,0.52857494,0.11388353,0.1334947,0.11388353,1.0,1.0,True
104,104,0.5612523555755615,0.8094433,0.049776062,0.09123939,0.049776062,1.0,1.0,True
105,105,-0.11803162097930908,-0.0074466765,0.2969107,0.3358955,0.2969107,1.0,1.0,True
106,106,0.1964213252067566,0.48039252,0.15493302,0.20441476,0.15493302,1.0,1.0,True
107,107,-5.371664047241211,0.055754088,0.092865594,0.14277393,0.092865594,1.0,1.0,True
108,108,0.314386248588562,0.6970419,0.068635195,0.08486734,0.068635195,1.0,1.0,True
109,109,-3.0137500762939453,-0.5881766,0.50314415,0.5639401,0.50314415,1.0,1.0,True
110,110,-1.2603330612182617,0.5541914,0.35422245,0.4394181,0.35422245,1.0,1.0,True
111,111,-1.260465383529663,-0.1460269,0.19855492,0.22616097,0.19855492,1.0,1.0,True
112,112,-0.10976600646972656,0.6135388,0.12894641,0.19289532,0.12894641,1.0,1.0,True
113,113,0.12043243646621704,0.61901706,0.038196392,0.08002161,0.038196392,1.0,1.0,True
114,114,-0.7567276954650879,0.26764762,0.13074954,0.1533197,0.13074954,1.0,1.0,True
115,115,-0.3565816879272461,0.7266152,0.25808248,0.3543088,0.25808248,1.0,1.0,True
116,116,-1.0553805828094482,0.014892773,0.14661896,0.20707594,0.14661896,1.0,1.0,True
117,117,-0.1373450756072998,0.71488893,0.20157081,0.25767952,0.20157081,1.0,1.0,True
118,118,-3.003516674041748,-0.6009467,0.38296956,0.44369867,0.38296956,1.0,1.0,True
119,119,0.19785690307617188,0.64540714,0.12976322,0.20736966,0.12976322,1.0,1.0,True
120,120,-0.085135817527771,0.73283297,0.14266907,0.15976074,0.14266907,1.0,1.0,True
121,121,0.3867780566215515,0.74584746,0.1737709,0.21910235,0.1737709,1.0,1.0,True
122,122,-0.3318023681640625,0.5593452,0.07321741,0.09533907,0.07321741,1.0,1.0,True
123,123,-0.7983294725418091,-0.26447484,0.11252626,0.14531037,0.11252626,1.0,1.0,True
124,124,-1.837357521057129,-0.6523583,0.47840035,0.56259626,0.47840035,1.0,1.0,True
125,125,-1.3252851963043213,0.506929,0.438256,0.51237416,0.438256,1.0,1.0,True
126,126,0.1560063362121582,0.8118354,0.29738835,0.3567842,0.29738835,1.0,1.0,True
127,127,-3.6591672897338867,-0.749987,0.50871134,0.57878214,0.50871134,1.0,1.0,True
128,128,-1.6893315315246582,-0.4065809,0.36902183,0.43020508,0.36902183,1.0,1.0,True
129,129,-3.7188796997070312,-0.007613472,0.13850474,0.1731707,0.13850474,1.0,1.0,True
130,130,0.2826464772224426,0.660204,0.097898975,0.12869856,0.097898975,1.0,1.0,True
131,131,-1.109067440032959,-0.38909024,0.12840588,0.1512541,0.12840588,1.0,1.0,True
132,132,-0.20975935459136963,0.08429815,0.30118856,0.3442862,0.30118856,1.0,1.0,True
133,133,-0.18667387962341309,0.30927306,0.17594106,0.20900743,0.17594106,1.0,1.0,True
134,134,-1.689629077911377,-0.62979364,0.3607618,0.41979802,0.3607618,1.0,1.0,True
135,135,-0.9839839935302734,0.17797849,0.06806399,0.11485644,0.06806399,1.0,1.0,True
136,136,-1.2170486450195312,-0.6327619,0.4473664,0.5162659,0.4473664,1.0,1.0,True
137,137,-2.1096861362457275,-0.5249373,0.46429074,0.55725604,0.46429074,1.0,1.0,True
138,138,-1.4375758171081543,-0.12880838,0.36101574,0.41788056,0.36101574,1.0,1.0,True
139,139,0.06591016054153442,0.4407863,0.2558924,0.29098564,0.2558924,1.0,1.0,True
140,140,-0.24283969402313232,0.041652746,0.36581394,0.42463207,0.36581394,1.0,1.0,True
141,141,-4.116634368896484,-0.01761314,0.1881016,0.2090229,0.1881016,1.0,1.0,True
142,142,0.30342185497283936,0.58224857,0.19120987,0.24274896,0.19120987,1.0,1.0,True
143,143,0.02600342035293579,0.24311934,0.29005492,0.33431047,0.29005492,1.0,1.0,True
144,144,0.28178173303604126,0.60314274,0.13961214,0.1785101,0.13961214,1.0,1.0,True
145,145,-0.04494786262512207,0.2535458,0.1080081,0.1971852,0.1080081,1.0,1.0,True
146,146,-3.392035484313965,0.45895448,0.20744139,0.22197857,0.20744139,1.0,1.0,True
